1,-1.7378e-08,-1.7378e-08,0,1.7378e-08,-8.689e-09,-8.689e-09,1.4481e-08,-1.1585e-08,-2.6067e-08,-2.3998e-08,-2.2756e-08,-1.5723e-08
2,-2.6611e-07,-2.6777e-07,-1.655e-09,2.6694e-07,-1.3223e-07,-1.3471e-07,2.1542e-07,-1.7714e-07,-4e-07,-3.6988e-07,-3.5164e-07,-2.4483e-07
3,-2.0175e-06,-2.0446e-06,-2.7078e-08,2.0311e-06,-9.9523e-07,-1.0359e-06,1.5775e-06,-1.3409e-06,-3.0394e-06,-2.8247e-06,-2.6928e-06,-1.891e-06
4,-1.0164e-05,-1.0384e-05,-2.1969e-07,1.0274e-05,-4.9724e-06,-5.3019e-06,7.6279e-06,-6.7463e-06,-1.5351e-05,-1.4347e-05,-1.3716e-05,-9.7216e-06
5,-3.8538e-05,-3.9723e-05,-1.1839e-06,3.913e-05,-1.8677e-05,-2.0453e-05,2.7571e-05,-2.5547e-05,-5.8357e-05,-5.4876e-05,-5.2618e-05,-3.7662e-05
6,-0.00011803,-0.00012282,-4.7886e-06,0.00012043,-5.662e-05,-6.3809e-05,7.9939e-05,-7.8161e-05,-0.00017924,-0.00016964,-0.00016314,-0.00011795
7,-0.00030583,-0.00032145,-1.5574e-05,0.00031366,-0.00014513,-0.00016853,0.00019478,-0.00020234,-0.00046584,-0.00044384,-0.00042805,-0.00031256
8,-0.00069276,-0.00073554,-4.2579e-05,0.00071428,-0.00032507,-0.00038916,0.0004124,-0.00045794,-0.0010584,-0.0010152,-0.00098166,-0.00072371
9,-0.0014054,-0.0015071,-0.00010099,0.0014568,-0.00065214,-0.0008044,0.00077836,-0.00092805,-0.0021536,-0.002079,-0.0020152,-0.001499
10,-0.0026012,-0.0028158,-0.00021266,0.00271,-0.0011939,-0.0015152,0.0013366,-0.0017149,-0.0039964,-0.0038815,-0.0037706,-0.0028271
11,-0.0044553,-0.0048647,-0.00040478,0.0046641,-0.0020243,-0.0026371,0.0021246,-0.0029299,-0.0068598,-0.0067004,-0.0065209,-0.0049227
12,-0.0071422,-0.0078581,-0.00070624,0.0075097,-0.0032159,-0.0042872,0.0031732,-0.0046786,-0.011013,-0.010812,-0.010539,-0.008
13,-0.010814,-0.011974,-0.0011423,0.011413,-0.0048314,-0.0065678,0.0045135,-0.0070423,-0.016685,-0.016455,-0.016057,-0.01224
14,-0.015576,-0.017335,-0.0017289,0.016493,-0.0069161,-0.009549,0.006188,-0.010058,-0.024022,-0.023787,-0.023231,-0.017759
15,-0.021472,-0.023987,-0.0024681,0.022794,-0.0094903,-0.013255,0.0082615,-0.013703,-0.033057,-0.032852,-0.032103,-0.024579
16,-0.028466,-0.03188,-0.0033458,0.030277,-0.012544,-0.017655,0.010826,-0.017878,-0.043687,-0.04356,-0.042582,-0.032615
17,-0.036441,-0.040869,-0.0043342,0.038812,-0.016033,-0.02266,0.013996,-0.022406,-0.05566,-0.05568,-0.054442,-0.041674
18,-0.045196,-0.050713,-0.0053956,0.04818,-0.019878,-0.028132,0.01789,-0.027032,-0.068586,-0.068847,-0.067331,-0.051474
19,-0.054461,-0.061102,-0.0064895,0.058088,-0.023965,-0.033891,0.022608,-0.031436,-0.081953,-0.082589,-0.080798,-0.061667
20,-0.063911,-0.071669,-0.0075788,0.068188,-0.028151,-0.039737,0.028206,-0.035247,-0.095164,-0.096365,-0.094336,-0.071875
21,-0.073191,-0.082029,-0.0086337,0.078105,-0.032276,-0.045457,0.034676,-0.038073,-0.10758,-0.1096,-0.10741,-0.081723
22,-0.081942,-0.091797,-0.0096328,0.087461,-0.036172,-0.050848,0.041943,-0.039525,-0.11855,-0.12173,-0.11953,-0.090865
23,-0.08983,-0.10062,-0.01056,0.095908,-0.039679,-0.055725,0.049877,-0.039245,-0.1275,-0.13225,-0.13022,-0.099008
24,-0.096573,-0.10821,-0.011399,0.10315,-0.042665,-0.05993,0.058321,-0.036925,-0.1339,-0.14072,-0.13912,-0.10592
25,-0.10196,-0.11431,-0.012127,0.10895,-0.045033,-0.063337,0.067118,-0.032328,-0.13735,-0.14681,-0.14596,-0.11144
26,-0.10586,-0.11879,-0.012711,0.11317,-0.046734,-0.065851,0.076147,-0.025295,-0.13758,-0.15031,-0.15058,-0.11546
27,-0.10825,-0.12154,-0.013104,0.11575,-0.04777,-0.067413,0.085335,-0.015748,-0.13446,-0.1511,-0.15292,-0.11795
28,-0.10917,-0.12258,-0.01325,0.11671,-0.048192,-0.067991,0.09466,-0.0036827,-0.12796,-0.1492,-0.15301,-0.11894
29,-0.10875,-0.12194,-0.01308,0.11614,-0.048088,-0.067584,0.10414,0.010839,-0.11817,-0.14469,-0.15098,-0.1185
30,-0.10714,-0.11974,-0.012525,0.11418,-0.047576,-0.066209,0.11382,0.027702,-0.10525,-0.13773,-0.14701,-0.11674
31,-0.10456,-0.1161,-0.011513,0.111,-0.046786,-0.063897,0.12371,0.046755,-0.089416,-0.12851,-0.14131,-0.11381
32,-0.10119,-0.11116,-0.0099766,0.10677,-0.045854,-0.060679,0.13384,0.067819,-0.070882,-0.11725,-0.1341,-0.10984
33,-0.097233,-0.10503,-0.0078464,0.10165,-0.044909,-0.056581,0.14417,0.090704,-0.049859,-0.10412,-0.12556,-0.10496
34,-0.09283,-0.097815,-0.0050538,0.09576,-0.044065,-0.051609,0.15466,0.11522,-0.026517,-0.089252,-0.11585,-0.099234
35,-0.088097,-0.089541,-0.0015258,0.089188,-0.04342,-0.045741,0.16525,0.14116,-0.00097506,-0.072725,-0.10503,-0.092686
36,-0.083098,-0.080195,0.0028163,0.081962,-0.043051,-0.038928,0.17587,0.16835,0.026708,-0.054531,-0.093087,-0.085262
37,-0.077847,-0.069709,0.008056,0.074056,-0.043012,-0.031089,0.18642,0.19661,0.056533,-0.034591,-0.079938,-0.076844
38,-0.072308,-0.057961,0.014279,0.065394,-0.043334,-0.022118,0.19683,0.22575,0.088552,-0.012765,-0.065423,-0.067259
39,-0.066407,-0.044788,0.021569,0.055856,-0.044023,-0.011891,0.20694,0.25558,0.12285,0.011134,-0.049338,-0.056298
40,-0.060029,-0.029998,0.030002,0.04529,-0.045063,-0.00027173,0.21658,0.28589,0.15954,0.037315,-0.031445,-0.043739
41,-0.053037,-0.013385,0.039646,0.033522,-0.046418,0.012874,0.22547,0.31643,0.1987,0.065984,-0.011502,-0.029365
42,-0.045281,0.0052598,0.050555,0.020367,-0.048034,0.027677,0.23328,0.34694,0.2404,0.097323,0.010716,-0.012978
43,-0.036614,0.02613,0.062773,0.0056523,-0.049857,0.044253,0.23962,0.37706,0.28464,0.13147,0.035405,0.0055857
44,-0.026904,0.049394,0.076337,-0.010778,-0.051831,0.062702,0.24405,0.40639,0.33133,0.16848,0.062708,0.026457
45,-0.016053,0.075184,0.091276,-0.029045,-0.053916,0.083102,0.24613,0.43448,0.38028,0.20836,0.09271,0.049724
46,-0.0040054,0.10358,0.10762,-0.049222,-0.056089,0.10551,0.24547,0.46079,0.43119,0.251,0.12542,0.07543
47,0.0092462,0.13461,0.12538,-0.071329,-0.058351,0.12993,0.2417,0.48474,0.48362,0.29618,0.16078,0.10357
48,0.023654,0.16824,0.14456,-0.095327,-0.060728,0.15637,0.2345,0.50568,0.53702,0.34359,0.19863,0.13406
49,0.03912,0.20435,0.16517,-0.12111,-0.063261,0.18475,0.22363,0.52298,0.59073,0.39282,0.23873,0.16677
50,0.055498,0.24276,0.18715,-0.14853,-0.06601,0.21497,0.20885,0.53593,0.64397,0.44334,0.28073,0.20147
51,0.072602,0.28323,0.21047,-0.17735,-0.069042,0.24688,0.18997,0.54388,0.69587,0.49452,0.32421,0.23787
52,0.090212,0.32544,0.23501,-0.20732,-0.072423,0.28027,0.16684,0.54619,0.74553,0.54568,0.36868,0.2756
53,0.10808,0.36902,0.26065,-0.23811,-0.076223,0.3149,0.13934,0.54226,0.79197,0.59605,0.41357,0.31423
54,0.12595,0.41355,0.28725,-0.26938,-0.080503,0.35048,0.1074,0.53157,0.83424,0.64485,0.45828,0.35327
55,0.14352,0.45855,0.3146,-0.30075,-0.085317,0.38669,0.071076,0.51371,0.87137,0.69124,0.50215,0.39223
56,0.16053,0.50353,0.34251,-0.33182,-0.090705,0.42316,0.0305,0.48838,0.90246,0.73444,0.54455,0.43059
57,0.17667,0.54796,0.37073,-0.36218,-0.096692,0.45951,-0.014058,0.4554,0.92665,0.77365,0.58484,0.46784
58,0.19167,0.59128,0.39898,-0.3914,-0.10328,0.49534,-0.062214,0.41477,0.94322,0.80814,0.62239,0.50346
59,0.20529,0.63294,0.42697,-0.41908,-0.11045,0.53019,-0.11349,0.36664,0.95155,0.83725,0.6566,0.53695
60,0.21729,0.67236,0.45434,-0.44482,-0.11813,0.56363,-0.16732,0.31135,0.95117,0.86038,0.68692,0.56783
61,0.22748,0.709,0.48075,-0.46825,-0.12624,0.59519,-0.22311,0.24941,0.9418,0.87704,0.71283,0.59561
62,0.23573,0.74233,0.5058,-0.48903,-0.13465,0.62441,-0.28024,0.18148,0.92332,0.88685,0.7339,0.61987
63,0.24193,0.77186,0.5291,-0.50687,-0.1432,0.65084,-0.33804,0.10839,0.89583,0.88955,0.74976,0.64021
64,0.24605,0.79714,0.55026,-0.52153,-0.15173,0.67407,-0.39584,0.031124,0.85959,0.88502,0.76013,0.65631
65,0.24808,0.81781,0.56891,-0.53282,-0.16005,0.69373,-0.45293,-0.049245,0.81508,0.87329,0.76484,0.66792
66,0.24804,0.83355,0.58472,-0.54061,-0.16796,0.70949,-0.50857,-0.13153,0.76295,0.85451,0.76383,0.67488
67,0.24602,0.84415,0.59738,-0.54484,-0.17528,0.72109,-0.56198,-0.21449,0.70398,0.82899,0.75715,0.67712
68,0.24212,0.84945,0.60664,-0.54547,-0.18183,0.72832,-0.61239,-0.29683,0.63914,0.79717,0.74493,0.67466
69,0.23648,0.8494,0.61229,-0.54256,-0.18745,0.73106,-0.65904,-0.37727,0.56947,0.75958,0.72741,0.66759
70,0.22925,0.844,0.61418,-0.5362,-0.19197,0.72923,-0.70125,-0.45455,0.49615,0.71687,0.70493,0.65608
71,0.22064,0.83337,0.61222,-0.52654,-0.19526,0.72286,-0.73841,-0.52746,0.42037,0.66978,0.67788,0.64035
72,0.21085,0.81768,0.60637,-0.51377,-0.1972,0.71201,-0.77004,-0.5949,0.3434,0.61908,0.64673,0.62067
73,0.20011,0.7972,0.59667,-0.49815,-0.1977,0.69684,-0.79579,-0.65588,0.26647,0.56562,0.612,0.59737
74,0.18864,0.77226,0.58324,-0.47996,-0.19669,0.67758,-0.81542,-0.70956,0.19081,0.51026,0.57427,0.57084
75,0.17669,0.74329,0.56624,-0.45952,-0.19416,0.65453,-0.82879,-0.75527,0.11757,0.45386,0.53415,0.54152
76,0.16445,0.71074,0.54594,-0.43716,-0.19013,0.62806,-0.83586,-0.79252,0.047808,0.39729,0.49227,0.50987
77,0.15212,0.67515,0.52269,-0.41326,-0.18467,0.59861,-0.83667,-0.82099,-0.017534,0.34137,0.44929,0.47642
78,0.13987,0.63707,0.49685,-0.38815,-0.17789,0.56664,-0.83134,-0.84059,-0.077657,0.28686,0.40583,0.44166
79,0.12784,0.59707,0.46887,-0.36221,-0.16993,0.53266,-0.82007,-0.85137,-0.13192,0.23445,0.36251,0.40612
80,0.11614,0.55573,0.43922,-0.33577,-0.16097,0.49719,-0.80319,-0.8536,-0.17985,0.18473,0.31988,0.37028
81,0.10487,0.51361,0.40837,-0.30916,-0.15119,0.46074,-0.7811,-0.84768,-0.22113,0.1382,0.27843,0.33457
82,0.094077,0.47125,0.3768,-0.28268,-0.1408,0.42382,-0.75435,-0.83418,-0.25565,0.095243,0.23861,0.29939
83,0.08382,0.42916,0.34497,-0.2566,-0.13002,0.38691,-0.72352,-0.81378,-0.28343,0.056116,0.20076,0.26508
84,0.074116,0.3878,0.31333,-0.23117,-0.11904,0.35047,-0.68928,-0.78727,-0.30465,0.020985,0.16517,0.23194
85,0.064968,0.3476,0.2823,-0.20659,-0.10809,0.31491,-0.65231,-0.75551,-0.31963,-0.010088,0.13207,0.20023
86,0.056356,0.30892,0.25226,-0.18304,-0.097359,0.2806,-0.61326,-0.71942,-0.32883,-0.037134,0.1016,0.17017
87,0.048242,0.27206,0.22358,-0.16064,-0.087052,0.24787,-0.57276,-0.67995,-0.33277,-0.060266,0.073857,0.14193
88,0.040578,0.23729,0.19653,-0.1395,-0.077342,0.21699,-0.53138,-0.63801,-0.33207,-0.079667,0.048871,0.11565
89,0.033306,0.20478,0.17136,-0.11967,-0.068378,0.18816,-0.48965,-0.5945,-0.32739,-0.095588,0.02661,0.09141
90,0.026369,0.17465,0.14826,-0.10118,-0.060283,0.16154,-0.44806,-0.55029,-0.31943,-0.10833,0.0069831,0.069241
91,0.019715,0.14696,0.12732,-0.084038,-0.053139,0.13722,-0.40708,-0.50613,-0.30886,-0.11822,-0.010148,0.049118
92,0.013299,0.12172,0.10858,-0.06822,-0.046994,0.1152,-0.36716,-0.46274,-0.29636,-0.12564,-0.024964,0.030969
93,0.0070897,0.09888,0.092044,-0.053688,-0.041857,0.095482,-0.32871,-0.42071,-0.28255,-0.13095,-0.037675,0.014687
94,0.0010649,0.078362,0.077633,-0.040391,-0.037709,0.077978,-0.2921,-0.38054,-0.26802,-0.13451,-0.048504,0.00014409
95,-0.004789,0.060051,0.065244,-0.028269,-0.034504,0.062585,-0.25761,-0.34264,-0.25327,-0.13668,-0.057679,-0.012797
96,-0.01048,0.043809,0.054745,-0.017253,-0.032177,0.049173,-0.22546,-0.3073,-0.23876,-0.13777,-0.06542,-0.024268
97,-0.01601,0.029482,0.045979,-0.0072665,-0.03065,0.037589,-0.19574,-0.27475,-0.22483,-0.13807,-0.071938,-0.034396
98,-0.02138,0.016903,0.038777,0.0017701,-0.029833,0.027666,-0.16849,-0.24507,-0.21178,-0.13781,-0.077424,-0.0433
99,-0.026586,0.0058975,0.032957,0.0099386,-0.029628,0.019226,-0.14367,-0.21831,-0.19981,-0.13721,-0.082058,-0.0511
100,-0.031617,-0.0037158,0.028331,0.017321,-0.029931,0.012085,-0.12121,-0.19442,-0.18907,-0.13644,-0.086005,-0.057918
101,-0.036458,-0.012116,0.024705,0.023996,-0.030632,0.0060539,-0.10101,-0.17328,-0.17962,-0.13563,-0.089414,-0.06388
102,-0.04109,-0.019479,0.021891,0.030039,-0.031621,0.00094903,-0.082989,-0.15475,-0.17146,-0.13491,-0.09242,-0.069116
103,-0.045489,-0.025967,0.019706,0.035519,-0.032794,-0.0034041,-0.067046,-0.13862,-0.16456,-0.13434,-0.095136,-0.073747
104,-0.049634,-0.031729,0.017989,0.040497,-0.034055,-0.0071633,-0.053085,-0.12469,-0.15884,-0.13398,-0.097653,-0.077882
105,-0.053508,-0.036896,0.016599,0.04503,-0.035326,-0.010464,-0.040982,-0.11273,-0.15419,-0.13384,-0.10003,-0.081608
106,-0.057103,-0.041579,0.015427,0.04917,-0.036548,-0.013418,-0.030577,-0.1025,-0.15049,-0.13392,-0.10232,-0.084985
107,-0.060419,-0.04587,0.014389,0.052967,-0.03768,-0.016112,-0.021674,-0.093777,-0.14761,-0.1342,-0.10452,-0.088051
108,-0.063468,-0.049846,0.013425,0.056465,-0.038702,-0.018611,-0.01405,-0.086349,-0.14541,-0.13464,-0.10665,-0.090829
109,-0.066267,-0.053567,0.012495,0.059707,-0.039606,-0.020964,-0.0074756,-0.080008,-0.14377,-0.13519,-0.10869,-0.093334
110,-0.068836,-0.057082,0.011571,0.062732,-0.040392,-0.023208,-0.0017376,-0.074565,-0.14256,-0.13583,-0.11064,-0.095589
111,-0.071194,-0.06043,0.01063,0.065572,-0.041062,-0.02537,0.0033375,-0.069848,-0.14166,-0.1365,-0.11249,-0.097621
